 Spectral energy distribution at the surface of the nebula: 
   viewPoints = 
    nu [Ryd]        lambda [um]         F(nu)*D^2            
                                        [Jy * pc^2]              
   1.00099996E-05   9103.57422       0.00000000    
   1.03387874E-05   8814.06836       0.00000000    
   1.06783791E-05   8533.76465       0.00000000    
   1.10291239E-05   8262.37695       0.00000000    
   1.13913902E-05   7999.61816       0.00000000    
   1.17655554E-05   7745.21631       0.00000000    
   1.21520106E-05   7498.90527       0.00000000    
   1.25511588E-05   7260.42725       180695.781    
   1.29634182E-05   7029.53271       0.00000000    
   1.33892190E-05   6805.98145       0.00000000    
   1.38290052E-05   6589.53955       0.00000000    
   1.42832369E-05   6379.98047       0.00000000    
   1.47523888E-05   6177.08594       0.00000000    
   1.52369503E-05   5980.64404       0.00000000    
   1.57374270E-05   5790.44922       0.00000000    
   1.62543438E-05   5606.30273       0.00000000    
   1.67882390E-05   5428.01270       0.00000000    
   1.73396711E-05   5255.39209       0.00000000    
   1.79092149E-05   5088.26172       0.00000000    
   1.84974670E-05   4926.44629       0.00000000    
   1.91050403E-05   4769.77637       0.00000000    
   1.97325699E-05   4618.08936       0.00000000    
   2.03807122E-05   4471.22607       111278.688    
   2.10501439E-05   4329.03320       0.00000000    
   2.17415636E-05   4191.36230       0.00000000    
   2.24556934E-05   4058.06982       100996.320    
   2.31932790E-05   3929.01636       0.00000000    
   2.39550936E-05   3804.06665       0.00000000    
   2.47419302E-05   3683.09082       0.00000000    
   2.55546111E-05   3565.96216       0.00000000    
   2.63939855E-05   3452.55835       85926.4219    
   2.72609304E-05   3342.76099       0.00000000    
   2.81563516E-05   3236.45532       0.00000000    
   2.90811840E-05   3133.53052       0.00000000    
   3.00363936E-05   3033.87866       0.00000000    
   3.10229771E-05   2937.39624       73105.2109    
   3.20419676E-05   2843.98193       0.00000000    
   3.30944276E-05   2753.53833       0.00000000    
   3.41814593E-05   2665.97095       0.00000000    
   3.53041942E-05   2581.18823       0.00000000    
   3.64638072E-05   2499.10205       0.00000000    
   3.76615062E-05   2419.62646       0.00000000    
   3.88985500E-05   2342.67798       0.00000000    
   4.01762227E-05   2268.17676       56449.8438    
   4.14958631E-05   2196.04492       0.00000000    
   4.28588501E-05   2126.20679       0.00000000    
   4.42666023E-05   2058.58984       0.00000000    
   4.57205970E-05   1993.12305       49604.3242    
   4.72223510E-05   1929.73816       0.00000000    
   4.87734324E-05   1868.36914       0.00000000    
   5.03754600E-05   1808.95166       0.00000000    
   5.20301073E-05   1751.42395       0.00000000    
   5.37391024E-05   1695.72571       0.00000000    
   5.55042352E-05   1641.79858       0.00000000    
   5.73273428E-05   1589.58655       79122.4844    
   5.92103352E-05   1539.03491       0.00000000    
   6.11551732E-05   1490.09106       0.00000000    
   6.31638977E-05   1442.70349       35905.6016    
   6.52386007E-05   1396.82300       0.00000000    
   6.73814429E-05   1352.40161       0.00000000    
   6.95946801E-05   1309.39282       0.00000000    
   7.18806041E-05   1267.75195       0.00000000    
   7.42416159E-05   1227.43518       0.00000000    
   7.66801822E-05   1188.40063       0.00000000    
   7.91988423E-05   1150.60742       28636.0449    
   8.18002300E-05   1114.01611       55450.7188    
   8.44870665E-05   1078.58850       26843.6426    
   8.72621531E-05   1044.28748       25989.9727    
   9.01283929E-05   1011.07733       0.00000000    
   9.30887836E-05   978.923279       0.00000000    
   9.61464029E-05   947.791809       23588.4102    
   9.93044596E-05   917.650391       0.00000000    
   1.02566242E-04   888.467529       66336.4844    
   1.05935105E-04   860.213196       21409.1426    
   1.09414621E-04   832.857361       0.00000000    
   1.13008427E-04   806.371521       20069.1113    
   1.16720272E-04   780.727905       19430.8848    
   1.20554039E-04   755.899780       0.00000000    
   1.24513797E-04   731.860840       18214.3711    
   1.28603613E-04   708.586426       17635.1172    
   1.32827772E-04   686.052124       17074.2930    
   1.37190669E-04   664.234497       16531.3164    
   1.41696873E-04   643.110718       16005.7227    
   1.46351013E-04   622.658997       0.00000000    
   1.51158019E-04   602.857666       0.00000000    
   1.56122915E-04   583.686096       0.00000000    
   1.61250893E-04   565.124146       0.00000000    
   1.66547383E-04   547.152222       27235.0000    
   1.72017768E-04   529.752075       0.00000000    
   1.77667913E-04   512.905090       25530.1367    
   1.83503638E-04   496.593842       12359.2178    
   1.89530954E-04   480.801544       11966.2598    
   1.95756249E-04   465.511444       11585.6230    
   2.02186115E-04   450.707397       22434.1855    
   2.08827187E-04   436.374084       21720.7500    
   2.15686377E-04   422.496674       31545.2695    
   2.22770759E-04   409.060760       20361.5508    
   2.30087826E-04   396.052124       9857.01563    
   2.37645232E-04   383.457184       19087.0801    
   2.45450879E-04   371.262787       18479.9453    
   2.53513019E-04   359.455994       8946.12891    
   2.61839858E-04   348.024841       8661.61816    
   2.70440330E-04   336.957031       8386.10840    
   2.79323285E-04   326.241241       8119.48926    
   2.88497860E-04   315.866394       39306.6563    
   2.97973806E-04   305.821442       22833.8008    
   3.07761133E-04   296.095795       7369.23047    
   3.17869766E-04   286.679596       14269.8613    
   3.28310445E-04   277.562836       13816.0498    
   3.39094055E-04   268.735992       20064.8672    
   3.50232032E-04   260.189728       0.00000000    
   3.61735671E-04   251.915375       12539.3203    
   3.73617338E-04   243.904037       6070.27686    
   3.85889085E-04   236.147583       17631.8457    
   3.98563890E-04   228.637802       22761.5078    
   4.11655026E-04   221.366852       0.00000000    
   4.25176142E-04   214.327118       21336.6484    
   4.39141615E-04   207.511139       10328.9688    
   4.53565794E-04   200.911926       10000.4932    
   4.68463753E-04   194.522568       24206.1426    
   4.83851065E-04   188.336411       23436.3379    
   4.99743794E-04   182.346985       9076.41113    
   5.16158529E-04   176.548035       21969.4121    
   5.33112441E-04   170.933502       8508.30957    
   5.50623168E-04   165.497528       28832.3066    
   5.68708812E-04   160.234497       3987.94312    
   5.87388466E-04   155.138855       15444.4902    
   6.06681686E-04   150.205246       14953.3262    
   6.26608613E-04   145.428543       10858.2559    
   6.47190376E-04   140.803665       28034.5547    
   6.68447814E-04   136.325943       6785.80322    
   6.90403511E-04   131.990601       3284.97559    
   7.13080692E-04   127.793076       19083.0742    
   7.36502348E-04   123.729103       15396.9521    
   7.60693336E-04   119.794365       11925.7373    
   7.85679324E-04   115.984695       17319.5840    
   8.11485981E-04   112.296181       16768.7930    
   8.38140317E-04   108.724960       18941.4453    
   8.65670096E-04   105.267326       15719.3516    
   8.94103665E-04   101.919701       12682.9736    
   9.23471176E-04   98.6785278       12279.5361    
   9.53803770E-04   95.5403824       4755.61230    
   9.85132181E-04   92.5020752       16115.4482    
   1.01748959E-03   89.5604019       11144.8799    
   1.05091033E-03   86.7122269       17264.7305    
   1.08542829E-03   83.9546738       20894.7656    
   1.12108001E-03   81.2848053       12138.0732    
   1.15790335E-03   78.6998138       3917.32104    
   1.19593623E-03   76.1970215       13274.6133    
   1.23521825E-03   73.7738266       12852.5732    
   1.27578992E-03   71.4277267       12443.9365    
   1.31769420E-03   69.1562347       20653.8926    
   1.36097556E-03   66.9569550       4999.26563    
   1.40567787E-03   64.8276367       6453.70996    
   1.45184912E-03   62.7660103       12496.9541    
   1.49953621E-03   60.7699738       7562.26855    
   1.54878956E-03   58.8374138       7321.77979    
   1.59966073E-03   56.9663124       15595.6523    
   1.65220280E-03   55.1547165       9608.81543    
   1.70647155E-03   53.4006996       7974.20752    
   1.76252192E-03   51.7024918       15441.2305    
   1.82041421E-03   50.0582619       13704.3340    
   1.88020710E-03   48.4663506       9649.82422    
   1.94196496E-03   46.9250336       10510.7344    
   2.00575124E-03   45.4327393       10176.5664    
   2.07163161E-03   43.9879227       7663.45459    
   2.13967590E-03   42.5890541       9539.67383    
   2.20995513E-03   41.2346725       11288.8018    
   2.28254288E-03   39.9233589       10929.7080    
   2.35751597E-03   38.6537247       14430.0586    
   2.43495172E-03   37.4244690       16765.3867    
   2.51493091E-03   36.2343063       16232.2207    
   2.59753712E-03   35.0819893       12223.5713    
   2.68285652E-03   33.9663239       10989.5967    
   2.77097686E-03   32.8861542       12277.1406    
   2.86199176E-03   31.8403339       15056.3672    
   2.95599760E-03   30.8277569       12275.8389    
   3.05308960E-03   29.8473969       10399.7646    
   3.15337232E-03   28.8981972       13665.0137    
   3.25694890E-03   27.9791851       13230.4453    
   3.36392759E-03   27.0893974       14158.2021    
   3.47441831E-03   26.2279224       13055.2988    
   3.58853815E-03   25.3938427       8216.08203    
   3.70640634E-03   24.5862885       11626.2461    
   3.82814603E-03   23.8044147       17773.4473    
   3.95388436E-03   23.0474052       10898.4453    
   4.08375496E-03   22.3144569       11662.4922    
   4.21789102E-03   21.6048203       13442.5068    
   4.35643084E-03   20.9177608       11453.2998    
   4.49952111E-03   20.2525501       10584.9365    
   4.64731362E-03   19.6084843       15128.4717    
   4.79995832E-03   18.9849091       11812.3828    
   4.95761912E-03   18.3811569       12809.1553    
   5.12045575E-03   17.7966137       15502.3848    
   5.28864097E-03   17.2306595       12865.1875    
   5.46235032E-03   16.6827049       9964.76270    
   5.64176822E-03   16.1521664       14873.8096    
   5.82707627E-03   15.6385069       14790.1299    
   6.01847097E-03   15.1411839       12435.5996    
   6.21615211E-03   14.6596756       15688.6592    
   6.42032642E-03   14.1934795       11077.0947    
   6.59999996E-03   13.8070869       19467.1016    
   6.63121045E-03   13.7421026       7065.32080    
   6.84902119E-03   13.3050804       16364.2480    
   6.89999992E-03   13.2067795       12382.9844    
   7.07398634E-03   12.8819551       9774.52832    
   7.19999988E-03   12.6564970       11358.1826    
   7.30634062E-03   12.4722862       8043.66504    
   7.54632708E-03   12.0756464       15026.7949    
   7.79419579E-03   11.6916199       15512.6553    
   7.99999945E-03   11.3908472       7445.24805    
   8.05020239E-03   11.3198118       8797.06152    
   8.29999987E-03   10.9791298       1663.47095    
   8.31462163E-03   10.9598217       12229.7705    
   8.58772639E-03   10.6112804       9247.79102    
   8.60000029E-03   10.5961361       11435.2617    
   8.86980072E-03   10.2738247       12280.5293    
   9.16113611E-03   9.94710445       13863.6455    
   9.46204085E-03   9.63077354       12516.0273    
   9.69999935E-03   9.39451313       11322.1152    
   9.77283344E-03   9.32449913       10751.9639    
   9.99999978E-03   9.11267757       2283.77563    
   1.00938324E-02   9.02796555       9774.51270    
   1.03000002E-02   8.84725952       13709.1211    
   1.04253748E-02   8.74086285       10969.5400    
   1.07678073E-02   8.46289063       11163.0869    
   1.11214863E-02   8.19375896       12439.4863    
   1.14867836E-02   7.93318462       13228.5381    
   1.18640782E-02   7.68089819       9427.60156    
   1.19999992E-02   7.59389830       13168.5654    
   1.22537659E-02   7.43663406       1466.17700    
   1.22999996E-02   7.40868092       11857.0117    
   1.26000000E-02   7.23228359       9877.30078    
   1.26562538E-02   7.20013809       12115.6035    
   1.30719617E-02   6.97116280       10062.8877    
   1.35013238E-02   6.74946976       8902.97852    
   1.39447879E-02   6.53482676       10246.2393    
   1.44028189E-02   6.32700968       11337.5820    
   1.48758944E-02   6.12580156       10622.3584    
   1.52999992E-02   5.95599890       10502.4229    
   1.53645081E-02   5.93099213       11240.6895    
   1.55999996E-02   5.84146023       11330.5068    
   1.58691723E-02   5.74237728       11240.7246    
   1.58999991E-02   5.73124409       15752.1025    
   1.63904112E-02   5.55976152       12541.5596    
   1.69287696E-02   5.38295317       12459.2871    
   1.74848139E-02   5.21176672       11155.0859    
   1.80591196E-02   5.04602528       9418.90820    
   1.86522901E-02   4.88555431       10092.0977    
   1.92649439E-02   4.73018646       11890.2109    
   1.98977198E-02   4.57975960       10885.8584    
   2.01000012E-02   4.53366995       11384.2686    
   2.04000007E-02   4.46699858       974.680725    
   2.05512810E-02   4.43411636       11240.7246    
   2.07000002E-02   4.40225983       8470.90625    
   2.12263092E-02   4.29310513       11504.0586    
   2.19235104E-02   4.15657759       11069.0273    
   2.26436090E-02   4.02439260       11618.4551    
   2.33873613E-02   3.89641118       10958.0332    
   2.41555441E-02   3.77249932       11830.1045    
   2.49489583E-02   3.65252829       10817.5840    
   2.57684309E-02   3.53637266       10649.5908    
   2.66148224E-02   3.42391062       9203.12891    
   2.74890140E-02   3.31502533       10600.7588    
   2.74999999E-02   3.31370091       8486.32227    
   2.77999993E-02   3.27794170       12462.5508    
   2.80999988E-02   3.24294591       12384.9736    
   2.83919182E-02   3.20960259       10896.2461    
   2.93244794E-02   3.10753250       11136.9795    
   3.02876718E-02   3.00870848       11306.9590    
   3.12825032E-02   2.91302705       10367.3867    
   3.23100090E-02   2.82038832       10248.2891    
   3.33712623E-02   2.73069596       10262.1768    
   3.44673768E-02   2.64385581       8817.21973    
   3.55994925E-02   2.55977726       9428.73047    
   3.67687941E-02   2.47837257       9252.24121    
   3.79765034E-02   2.39955664       9555.20996    
   3.92238796E-02   2.32324743       9187.58301    
   3.96999978E-02   2.29538488       10767.9619    
   3.99999991E-02   2.27816939       9774.48535    
   4.03000005E-02   2.26121020       8587.01758    
   4.05122302E-02   2.24936461       10167.9756    
   4.18428965E-02   2.17783141       11111.3574    
   4.32172678E-02   2.10857320       11492.7012    
   4.46367823E-02   2.04151750       10161.8232    
   4.61029261E-02   1.97659421       10281.4014    
   4.76172231E-02   1.91373563       9621.04004    
   4.91812602E-02   1.85287595       10975.1982    
   5.07966690E-02   1.79395175       10447.5791    
   5.24651371E-02   1.73690152       9985.64746    
   5.41884080E-02   1.68166542       10630.7178    
   5.59682809E-02   1.62818611       10616.8154    
   5.78066185E-02   1.57640731       8906.00586    
   5.97053356E-02   1.52627528       9686.39844    
   6.16664179E-02   1.47773743       8169.39453    
   6.21999986E-02   1.46506071       7035.56055    
   6.25000000E-02   1.45802844       11240.7314    
   6.27999976E-02   1.45106339       13531.1602    
   6.36919141E-02   1.43074322       11890.8174    
   6.57839403E-02   1.38524354       11411.5205    
   6.79446831E-02   1.34119070       10781.5830    
   7.01763928E-02   1.29853892       9824.67578    
   7.24814087E-02   1.25724339       10638.6719    
   7.48621374E-02   1.21726120       10875.9551    
   7.73210600E-02   1.17855048       10207.4482    
   7.98607469E-02   1.14107084       9485.25000    
   8.24838579E-02   1.10478318       10558.3789    
   8.51931274E-02   1.06964934       9583.70801    
   8.79913792E-02   1.03563297       9639.78418    
   9.08815488E-02   1.00269830       9283.30469    
   9.38666463E-02  0.970811009       9688.77148    
   9.69497934E-02  0.939937770       9333.86719    
  0.100134209      0.910046399       9354.12793    
  0.103423215      0.881105602       9517.16895    
  0.106820256      0.853085160       9023.41602    
  0.110328875      0.825955808       8363.16602    
  0.110870004      0.821924508       3137.60693    
  0.111170001      0.819706500       14661.9170    
  0.111469999      0.817500472       15543.0576    
  0.113952741      0.799689174       15914.6602    
  0.115800001      0.786932409       14612.2207    
  0.116099998      0.784898996       14906.2813    
  0.116399996      0.782876074       14242.4238    
  0.117695637      0.774257898       14345.1436    
  0.121561475      0.749635339       12456.9434    
  0.122180000      0.745840371       14845.0117    
  0.122479998      0.744013548       11240.8008    
  0.122779995      0.742195606       13496.7793    
  0.125554278      0.725795865       14155.4346    
  0.129678249      0.702714384       13868.9111    
  0.133937657      0.680367112       11842.5029    
  0.137019992      0.665061891       11573.9316    
  0.137319997      0.663608909       10751.8027    
  0.137620002      0.662162304       12254.5186    
  0.138336971      0.658730447       11649.6338    
  0.142880797      0.637781799       11396.9063    
  0.147573858      0.617499411       10742.4775    
  0.152421072      0.597862065       11129.9375    
  0.157427505      0.578849137       11770.0332    
  0.162598372      0.560440898       11451.5254    
  0.167939082      0.542618036       10479.6445    
  0.173455209      0.525362015       10773.9824    
  0.179152533      0.508654654       9557.85254    
  0.185036972      0.492478728       9450.01270    
  0.191114709      0.476817161       9090.15234    
  0.197392061      0.461653709       8559.78809    
  0.203875616      0.446972400       8610.18066    
  0.210572109      0.432758033       8767.18945    
  0.217488572      0.418995678       8123.39404    
  0.224632204      0.405671030       8703.05176    
  0.232010484      0.392770082       8162.35938    
  0.239631101      0.380279422       8431.77930    
  0.247329995      0.368442059       7600.13672    
  0.247502029      0.368185967       8308.20703    
  0.247630000      0.367995709       5823.93115    
  0.247930005      0.367550403       7878.03174    
  0.249639988      0.365032762       7732.14209    
  0.249939993      0.364594609       29078.7363    
  0.250239998      0.364157498       31093.4473    
  0.255631477      0.356477141       29381.0586    
  0.264027953      0.345140636       26329.9121    
  0.266000003      0.342581868       26457.8867    
  0.266299993      0.342195928       30546.4004    
  0.266599983      0.341810882       26527.6191    
  0.272700250      0.334164619       25862.1719    
  0.281657368      0.323537678       24518.8828    
  0.290908694      0.313248724       22200.8613    
  0.291590005      0.312516809       18377.6504    
  0.291889995      0.312195599       19794.0820    
  0.292189986      0.311875075       21324.3477    
  0.300463885      0.303286940       20300.1211    
  0.310332924      0.293641984       18716.1660    
  0.320526123      0.284303725       17908.6660    
  0.331054121      0.275262475       17311.7422    
  0.341927946      0.266508698       15467.7959    
  0.353158921      0.258033335       14796.0977    
  0.364758790      0.249827489       14170.1143    
  0.376739651      0.241882622       13731.5273    
  0.389114052      0.234190404       12787.7637    
  0.401894897      0.226742804       12725.3164    
